frequency,raw
20.299999,106.367
20.6,106.371
20.9,106.367
21.200001,106.361
21.4,106.357
21.799999,106.349
22.0,106.345
22.4,106.336
22.700001,106.33
23.0,106.324
23.299999,106.319
23.6,106.314
24.0,106.306
24.299999,106.299
24.700001,106.288
25.0,106.279
25.4,106.267
25.799999,106.254
26.200001,106.242
26.5,106.232
26.9,106.217
27.200001,106.204
27.6,106.186
28.0,106.169
28.5,106.148
29.0,106.128
29.5,106.106
30.0,106.083
30.4,106.063
30.700001,106.047
31.1,106.026
31.5,106.006
32.0,105.98
32.5,105.954
33.0,105.928
33.5,105.902
34.0,105.876
34.5,105.848
35.0,105.819
35.5,105.789
36.0,105.76
36.5,105.73
37.0,105.7
37.5,105.67
38.200001,105.627
38.700001,105.597
39.5,105.55
40.0,105.52
40.599998,105.484
41.200001,105.447
41.799999,105.409
42.5,105.365
43.099998,105.328
43.700001,105.29
44.400002,105.243
45.0,105.204
45.5,105.174
46.200001,105.131
46.799999,105.089
47.5,105.04
48.200001,104.998
48.700001,104.969
49.400002,104.924
50.0,104.883
50.799999,104.828
51.5,104.782
52.200001,104.737
53.0,104.688
53.799999,104.637
54.5,104.589
55.200001,104.542
56.0,104.491
57.0,104.426
58.0,104.362
59.0,104.297
60.0,104.222
60.799999,104.176
61.5,104.141
62.200001,104.098
63.0,104.044
64.0,103.981
65.0,103.917
66.0,103.853
67.0,103.793
68.0,103.732
69.0,103.673
70.0,103.606
71.0,103.539
72.0,103.486
73.0,103.424
74.0,103.363
75.0,103.305
76.199997,103.231
77.5,103.151
78.800003,103.078
80.0,103.008
81.199997,102.937
82.5,102.865
83.800003,102.79
85.0,102.725
86.199997,102.657
87.5,102.586
88.5,102.532
90.0,102.448
91.199997,102.383
92.5,102.314
93.800003,102.246
95.0,102.182
96.199997,102.119
97.5,102.053
98.800003,101.988
100.0,101.927
101.5,101.85
103.0,101.776
104.400002,101.707
106.0,101.627
107.5,101.555
109.0,101.481
110.599998,101.412
112.0,101.341
113.800003,101.264
115.0,101.201
117.199997,101.105
118.0,101.084
120.599998,100.932
122.0,100.887
124.099998,100.807
125.0,100.761
126.5,100.705
128.0,100.637
131.5,100.504
132.0,100.483
134.0,100.404
136.0,100.325
138.0,100.247
140.0,100.178
143.0,100.06
145.0,99.988
147.5,99.9
150.0,99.815
152.5,99.728
155.0,99.642
157.5,99.559
160.0,99.479
162.5,99.397
165.0,99.304
167.5,99.228
170.0,99.154
172.5,99.08
175.0,99.005
177.5,98.942
180.0,98.881
182.5,98.823
185.0,98.77
187.5,98.722
190.0,98.671
192.5,98.623
195.0,98.576
197.5,98.522
200.0,98.468
203.0,98.401
206.0,98.335
209.0,98.269
212.0,98.201
214.0,98.154
218.0,98.072
220.0,98.031
224.0,97.95
227.0,97.891
230.0,97.834
233.0,97.776
236.0,97.722
240.0,97.649
243.0,97.603
247.0,97.534
250.0,97.488
254.0,97.425
258.0,97.364
262.0,97.308
265.0,97.265
269.0,97.211
272.0,97.173
276.0,97.122
280.0,97.074
285.0,97.013
290.0,96.956
295.0,96.902
300.0,96.848
304.0,96.812
307.0,96.783
311.0,96.749
315.0,96.713
320.0,96.669
325.0,96.629
330.0,96.592
335.0,96.558
340.0,96.525
345.0,96.494
350.0,96.464
355.0,96.436
360.0,96.413
365.0,96.388
370.0,96.365
375.0,96.345
382.0,96.32
387.0,96.302
395.0,96.277
400.0,96.262
406.0,96.247
412.0,96.234
418.0,96.223
425.0,96.213
431.0,96.206
437.0,96.199
444.0,96.197
450.0,96.195
455.0,96.195
462.0,96.194
468.0,96.197
475.0,96.197
482.0,96.198
487.0,96.201
494.0,96.206
500.0,96.21
508.0,96.22
515.0,96.228
522.0,96.234
530.0,96.245
538.0,96.253
545.0,96.261
552.0,96.271
560.0,96.28
570.0,96.29
580.0,96.301
590.0,96.311
600.0,96.323
608.0,96.335
615.0,96.34
622.0,96.346
630.0,96.354
640.0,96.363
650.0,96.373
660.0,96.379
670.0,96.39
680.0,96.393
690.0,96.404
700.0,96.408
710.0,96.417
720.0,96.423
730.0,96.431
740.0,96.441
750.0,96.449
762.0,96.463
775.0,96.482
788.0,96.499
800.0,96.523
812.0,96.546
825.0,96.574
838.0,96.606
850.0,96.642
862.0,96.68
875.0,96.725
885.0,96.764
900.0,96.826
912.0,96.88
925.0,96.947
938.0,97.016
950.0,97.087
962.0,97.162
975.0,97.25
988.0,97.342
1000.0,97.432
1015.0,97.547
1030.0,97.666
1044.0,97.779
1060.0,97.91
1075.0,98.033
1090.0,98.157
1106.0,98.287
1120.0,98.399
1138.0,98.538
1150.0,98.629
1172.0,98.79
1180.0,98.848
1206.0,99.022
1220.0,99.11
1241.0,99.233
1250.0,99.283
1265.0,99.365
1280.0,99.439
1315.0,99.598
1320.0,99.621
1340.0,99.702
1360.0,99.775
1380.0,99.845
1400.0,99.908
1430.0,99.997
1450.0,100.054
1475.0,100.121
1500.0,100.182
1525.0,100.247
1550.0,100.31
1575.0,100.371
1600.0,100.431
1625.0,100.495
1650.0,100.561
1675.0,100.627
1700.0,100.694
1725.0,100.763
1750.0,100.832
1775.0,100.902
1800.0,100.97
1825.0,101.039
1850.0,101.105
1875.0,101.17
1900.0,101.231
1925.0,101.288
1950.0,101.339
1975.0,101.385
2000.0,101.421
2030.0,101.458
2060.0,101.482
2090.0,101.493
2120.0,101.49
2140.0,101.48
2180.0,101.444
2200.0,101.417
2240.0,101.349
2270.0,101.288
2300.0,101.217
2330.0,101.14
2360.0,101.062
2400.0,100.949
2430.0,100.866
2470.0,100.755
2500.0,100.675
2540.0,100.576
2580.0,100.487
2620.0,100.412
2650.0,100.366
2690.0,100.316
2720.0,100.291
2760.0,100.27
2800.0,100.27
2850.0,100.295
2900.0,100.356
2950.0,100.455
3000.0,100.598
3040.0,100.742
3070.0,100.866
3110.0,101.041
3150.0,101.222
3200.0,101.441
3250.0,101.629
3300.0,101.772
3350.0,101.86
3400.0,101.89
3450.0,101.867
3500.0,101.796
3550.0,101.689
3600.0,101.568
3650.0,101.442
3700.0,101.327
3750.0,101.233
3820.0,101.144
3870.0,101.119
3950.0,101.145
4000.0,101.197
4060.0,101.297
4120.0,101.429
4180.0,101.584
4250.0,101.786
4310.0,101.964
4370.0,102.137
4440.0,102.319
4500.0,102.45
4550.0,102.531
4620.0,102.612
4680.0,102.645
4750.0,102.65
4820.0,102.621
4870.0,102.586
4940.0,102.515
5000.0,102.441
5080.0,102.325
5150.0,102.214
5220.0,102.097
5300.0,101.965
5380.0,101.839
5450.0,101.736
5520.0,101.643
5600.0,101.554
5700.0,101.466
5800.0,101.423
5900.0,101.421
6000.0,101.467
6080.0,101.535
6150.0,101.617
6220.0,101.719
6300.0,101.855
6400.0,102.046
6500.0,102.259
6600.0,102.48
6700.0,102.693
6800.0,102.887
6900.0,103.049
7000.0,103.162
7100.0,103.225
7200.0,103.243
7300.0,103.221
7400.0,103.154
7500.0,103.05
7620.0,102.898
7750.0,102.731
7880.0,102.577
8000.0,102.448
8120.0,102.321
8250.0,102.175
8380.0,102.001
8500.0,101.798
8620.0,101.513
8750.0,101.078
8850.0,100.657
9000.0,99.915
9120.0,99.284
9250.0,98.608
9380.0,97.988
9500.0,97.471
9620.0,97.029
9750.0,96.653
9880.0,96.362
10000.0,96.172
10150.0,96.035
10300.0,95.972
10440.0,95.958
10600.0,95.966
10750.0,95.965
10900.0,95.961
11060.0,95.954
11200.0,95.996
11380.0,96.101
11500.0,96.18
11720.0,96.19
11800.0,96.13
12060.0,95.762
12200.0,95.449
12410.0,94.994
12500.0,94.803
12650.0,94.477
12800.0,94.343
13150.0,94.813
13200.0,94.944
13400.0,95.558
13600.0,96.329
13800.0,97.147
14000.0,97.887
14300.0,98.617
14500.0,98.861
14750.0,98.991
15000.0,99.016
15250.0,98.874
15500.0,98.436
15750.0,97.613
16000.0,96.603
16250.0,95.707
16500.0,95.181
16750.0,95.166
17000.0,95.666
17250.0,96.363
17500.0,96.496
17750.0,95.674
18000.0,94.224
18250.0,93.184
18500.0,93.997
18750.0,91.144
19000.0,88.736
19250.0,85.615
19500.0,82.22
19750.0,78.003
